Entities,FPS,Frame Time (s),Physics Time (s),Cache References,Cache Misses,Cache miss rate (%)
3.0,299.9,0.0032018,0.0029113333333333335,8237248.333333333,243210.26666666666,0.0295247
4.966666666666667,299.56666666666666,0.0033973,0.002894866666666667,8261299.733333333,246301.53333333333,0.029813133333333335
6.933333333333334,299.4,0.0034268999999999997,0.002915833333333333,8228826.833333333,242227.26666666666,0.029435366666666667
8.9,298.8666666666667,0.0033826,0.0028633333333333336,8254892.233333333,245234.73333333334,0.029706566666666667
10.866666666666667,298.6,0.0033985333333333336,0.0028759999999999997,8233582.566666666,242174.93333333332,0.029412966666666665
12.766666666666667,298.46666666666664,0.00339,0.002882433333333333,8255643.366666666,244849.7,0.029657866666666664
14.6,298.3,0.0033970666666666666,0.0028762,8253266.833333333,244279.76666666666,0.0295972
16.433333333333334,298.2,0.0033987666666666664,0.0028695333333333332,8246571.133333334,243564.1,0.029533900000000002
18.2,298.03333333333336,0.003402266666666667,0.0028610000000000003,8249704.766666667,243697.13333333333,0.0295389
20.0,297.9,0.0034129000000000004,0.002876433333333333,8222336.066666666,243035.9,0.0295568
21.9,297.6333333333333,0.003421,0.0028834666666666666,8264656.066666666,245630.0,0.029719333333333334
23.666666666666668,297.4,0.003428166666666667,0.002897066666666667,8256284.433333334,244152.36666666667,0.029570766666666668
25.466666666666665,297.03333333333336,0.0034445,0.0028964,8269040.866666666,246443.83333333334,0.029801200000000003
27.0,296.6666666666667,0.0033988,0.0028864666666666666,8265229.7,246767.1,0.029853966666666665
28.833333333333332,296.56666666666666,0.0033929,0.002881233333333333,8244967.166666667,243731.93333333332,0.029559233333333334
30.466666666666665,296.4,0.0033986,0.0028786000000000003,8275153.533333333,246255.23333333334,0.029757833333333334
32.1,296.23333333333335,0.0034085,0.0028879,8270243.133333334,245556.96666666667,0.029689499999999997
33.8,296.1,0.003404633333333333,0.0028659666666666665,8277554.166666667,244992.2,0.02959576666666667
35.5,295.93333333333334,0.0033833666666666664,0.0028626333333333334,8273205.566666666,245104.36666666667,0.02962446666666667
36.96666666666667,295.7,0.0034351000000000004,0.0028816333333333334,8247498.0,242022.23333333334,0.029342366666666668
38.766666666666666,295.4,0.0034063333333333333,0.0028707333333333335,8279804.7,245333.2,0.029628766666666664
40.46666666666667,295.1333333333333,0.0034033333333333333,0.0028797333333333334,8274746.333333333,244928.33333333334,0.029598633333333336
42.03333333333333,294.96666666666664,0.0034038,0.0028781333333333333,8282056.2,245730.7,0.029669333333333332
43.766666666666666,294.8333333333333,0.003393366666666667,0.002888366666666667,8283962.333333333,246393.26666666666,0.029742266666666666
45.266666666666666,294.6666666666667,0.0033964999999999998,0.002878333333333333,8271092.833333333,243804.3,0.029473033333333336
46.9,294.5,0.0034007333333333336,0.0028657,8285268.9,245108.36666666667,0.029582300000000002
48.4,294.26666666666665,0.0034010999999999998,0.002866166666666667,8281343.433333334,244956.56666666668,0.0295782
49.96666666666667,293.96666666666664,0.0034067,0.0028867,8288377.1,245416.93333333332,0.029609033333333333
51.4,293.7,0.0034051,0.0028723666666666666,8284636.966666667,245537.1,0.029637133333333333
52.9,293.5,0.003384666666666667,0.0029041666666666664,8274867.133333334,246055.63333333333,0.029734299999999998
54.5,293.23333333333335,0.0034108,0.002886066666666667,8299927.8,246657.16666666666,0.029716533333333333
55.93333333333333,293.2,0.0034222666666666665,0.0029138000000000002,8294135.866666666,246523.33333333334,0.029718866666666666
57.43333333333333,293.06666666666666,0.003413,0.0029170999999999997,8305546.233333333,249204.23333333334,0.0300024
59.0,292.96666666666664,0.0034302666666666667,0.002933433333333333,8302194.533333333,251571.5,0.03030036666666667
60.53333333333333,292.9,0.00344,0.0029406000000000002,8293874.4,248005.96666666667,0.0299004
62.0,292.96666666666664,0.0033900333333333334,0.0028831,8311373.166666667,246824.53333333333,0.02969633333333333
63.666666666666664,292.8333333333333,0.0034099,0.002907666666666667,8293008.233333333,244031.23333333334,0.029425466666666667
65.2,292.8666666666667,0.0033998,0.0028722,8305183.666666667,245040.16666666666,0.0295041
66.63333333333334,292.73333333333335,0.003413133333333333,0.002891166666666667,8308327.666666667,245280.73333333334,0.029520433333333332
68.23333333333333,292.73333333333335,0.003413133333333333,0.002925633333333333,8307767.8,248534.83333333334,0.029910700000000002
69.8,292.7,0.0034206333333333333,0.0029089,8316836.466666667,246852.5,0.02967833333333333
71.26666666666667,292.8,0.0034087999999999996,0.0028878000000000003,8292344.0,243373.7,0.029348199999999998
72.9,292.8666666666667,0.0033983,0.0028731000000000004,8320333.233333333,246152.83333333334,0.029583433333333336
74.43333333333334,292.8666666666667,0.003395833333333333,0.0028764,8307069.066666666,245025.66666666666,0.02949526666666667
76.0,292.8333333333333,0.003399333333333333,0.0028577333333333335,8319300.366666666,245501.5,0.029509300000000002
77.6,292.8333333333333,0.0033897999999999997,0.0028648,8318531.1,245632.16666666666,0.02952836666666667
79.13333333333334,292.8333333333333,0.0034085,0.0028898333333333332,8306454.7,246254.66666666666,0.029644766666666666
80.63333333333334,292.9,0.0034098333333333333,0.002892633333333333,8330791.333333333,246734.6,0.029616899999999998
82.36666666666666,292.93333333333334,0.0034019333333333334,0.0028820666666666667,8334661.166666667,245494.7,0.029454733333333333
83.86666666666666,292.93333333333334,0.0033867666666666666,0.0028581333333333333,8333161.2,245776.7,0.029493166666666668
85.43333333333334,293.0,0.0034079666666666664,0.0028734,8330451.0,245920.56666666668,0.029520333333333332
87.06666666666666,292.9,0.003403666666666667,0.0028748,8318787.933333334,244244.96666666667,0.029358433333333333
88.66666666666667,292.96666666666664,0.0033937333333333335,0.0028747,8341750.2,246654.96666666667,0.029568033333333334
90.2,292.8666666666667,0.0034075,0.002887033333333333,8330283.566666666,245235.7,0.029436933333333335
91.73333333333333,292.93333333333334,0.003395933333333333,0.0028748,8336698.6,246164.86666666667,0.0295265
93.4,292.96666666666664,0.003410066666666667,0.0028747,8338536.866666666,246277.6,0.0295328
94.83333333333333,292.93333333333334,0.003409066666666667,0.0028811666666666664,8330460.8,245013.0,0.029409133333333334
96.3,292.93333333333334,0.0034166,0.0028971333333333337,8345507.533333333,246322.53333333333,0.029514666666666668
97.76666666666667,293.1,0.003402,0.0028768333333333337,8334352.866666666,245804.23333333334,0.0294915
99.23333333333333,292.96666666666664,0.0033966,0.0028616666666666664,8341554.166666667,245657.76666666666,0.029448333333333337
100.8,293.03333333333336,0.0033972666666666667,0.0028799333333333335,8348451.466666667,246211.36666666667,0.029490466666666666
102.3,293.1,0.0034158333333333332,0.002882266666666667,8340460.2,245188.26666666666,0.0293956
103.76666666666667,293.1333333333333,0.0033971333333333337,0.0028648666666666665,8351071.9,246421.33333333334,0.02950663333333333
105.4,293.2,0.0033968333333333333,0.0028677999999999998,8348000.566666666,245290.46666666667,0.029382333333333333
107.3,293.3666666666667,0.0034124999999999997,0.0028718999999999997,8366108.1,246581.66666666666,0.02947203333333333
108.8,293.3333333333333,0.0033951666666666666,0.0028610000000000003,8357779.9,246128.9,0.029447633333333334
110.16666666666667,293.3666666666667,0.0034036,0.0028626333333333334,8353110.8,245715.63333333333,0.029414633333333332
111.73333333333333,293.3333333333333,0.0033913,0.0028677999999999998,8367508.466666667,246559.03333333333,0.029465300000000003
113.46666666666667,293.3666666666667,0.0034100333333333334,0.0028787333333333332,8367404.066666666,245875.93333333332,0.029383
115.06666666666666,293.43333333333334,0.0033941666666666664,0.0028638,8373386.6,246884.73333333334,0.029483433333333333
116.6,293.5,0.0034132333333333335,0.0028914,8372633.633333334,246727.83333333334,0.029467100000000003
118.13333333333334,293.53333333333336,0.0034072,0.0028776333333333333,8379915.633333334,246668.83333333334,0.029434066666666665
119.5,293.3,0.0035032666666666664,0.0029904666666666665,8399216.733333332,258186.1,0.030732033333333336
120.96666666666667,292.8333333333333,0.0035726666666666667,0.0030889333333333335,8405145.366666667,266308.8333333333,0.03165613333333333
122.73333333333333,292.1666666666667,0.003718666666666667,0.0032698000000000002,8456385.633333333,290823.1666666667,0.0343806
124.1,291.7,0.0035388999999999998,0.003090066666666667,8427235.666666666,272186.2,0.0322898
125.53333333333333,291.56666666666666,0.0034222666666666665,0.0029732666666666668,8432453.833333334,256993.3,0.030475466666666666
127.23333333333333,291.3666666666667,0.0034335,0.002977166666666667,8421980.466666667,256160.16666666666,0.03041253333333333
128.86666666666667,291.3333333333333,0.0034102666666666667,0.0029072666666666667,8402305.466666667,247159.63333333333,0.029414366666666667
130.36666666666667,291.3,0.0034108666666666666,0.0028973,8412684.533333333,248212.36666666667,0.0295034
131.93333333333334,291.3,0.0033911999999999996,0.0028880666666666666,8404047.766666668,247636.1,0.029465
133.36666666666667,291.26666666666665,0.0034021,0.002899466666666667,8417310.633333333,250421.33333333334,0.02975
135.1,291.23333333333335,0.0034237666666666667,0.0028952333333333333,8412398.366666667,248010.16666666666,0.0294794
136.73333333333332,291.26666666666665,0.0033996666666666667,0.0028725333333333336,8403458.2,246674.03333333333,0.029352433333333334
138.23333333333332,291.2,0.0033923666666666667,0.0028796,8429891.633333333,248235.63333333333,0.029445266666666668
139.73333333333332,291.3333333333333,0.003400366666666667,0.0028765333333333333,8411963.433333334,247127.0,0.0293764
141.1,291.3,0.0033908666666666665,0.0028768333333333337,8414012.233333332,248003.4,0.029473366666666667
142.66666666666666,291.4,0.0033989333333333334,0.002888233333333333,8419732.233333332,248790.83333333334,0.029547866666666665
144.13333333333333,291.3333333333333,0.0034031666666666668,0.0028933,8423717.4,248402.43333333332,0.029485033333333334
145.73333333333332,291.43333333333334,0.0033873,0.0029097,8433538.3,249721.23333333334,0.0296092
147.36666666666667,291.3333333333333,0.003457533333333333,0.0029540333333333336,8434897.433333334,250803.3,0.029730966666666667
149.16666666666666,291.1,0.0034199666666666667,0.0029054333333333334,8441650.3,249261.46666666667,0.029526033333333333
150.76666666666668,291.06666666666666,0.0034448666666666667,0.0029228,8439354.733333332,249345.53333333333,0.029544433333333335
152.36666666666667,291.0,0.0034272333333333336,0.0029173666666666665,8457537.966666667,249895.56666666668,0.029545666666666668
153.9,291.0,0.0034215,0.002896066666666667,8453285.866666667,248606.53333333333,0.0294082
155.43333333333334,290.76666666666665,0.0034523666666666664,0.002924933333333333,8453279.6,247683.56666666668,0.0292985
156.83333333333334,290.6333333333333,0.003421333333333333,0.0029154,8467095.166666666,249572.66666666666,0.029475533333333335
158.33333333333334,290.6666666666667,0.0034121999999999998,0.0028892333333333333,8453368.9,248324.23333333334,0.029376033333333332
159.93333333333334,290.6333333333333,0.0034087333333333333,0.0028843666666666665,8462539.133333333,249052.86666666667,0.029430466666666665
161.63333333333333,290.6333333333333,0.003406466666666667,0.0028991999999999998,8466544.7,248343.2,0.029331933333333334
163.13333333333333,290.56666666666666,0.003411633333333333,0.002892333333333333,8464307.033333333,248332.16666666666,0.029337466666666666
164.8,290.6,0.0034020666666666668,0.0028883000000000003,8495965.166666666,249751.63333333333,0.029395533333333335
166.4,290.8333333333333,0.0033998333333333333,0.0028956666666666666,8472425.266666668,249761.06666666668,0.029478233333333333
167.76666666666668,291.26666666666665,0.0034079333333333333,0.0029114333333333333,8487867.866666667,250890.16666666666,0.029557966666666668
169.46666666666667,291.7,0.003444266666666667,0.0029454999999999998,8496939.4,254135.36666666667,0.029906266666666667
171.16666666666666,292.1333333333333,0.003434833333333333,0.002942866666666667,8517683.533333333,255065.2,0.029941833333333334
172.8,292.26666666666665,0.0034004,0.0029111666666666665,8509476.533333333,250285.86666666667,0.0294126
174.1,292.3333333333333,0.0034097666666666666,0.0029173,8498250.7,249768.66666666666,0.029389433333333333
175.53333333333333,292.43333333333334,0.003402,0.0028909666666666668,8524949.566666666,250642.93333333332,0.029400166666666668
177.16666666666666,292.46666666666664,0.003411766666666667,0.002902733333333333,8520029.7,250936.13333333333,0.029452033333333336
178.7,292.3,0.0034279333333333334,0.0029381666666666666,8536330.5,253437.16666666666,0.02968626666666667
180.36666666666667,292.3,0.0034444,0.0029437666666666668,8537374.5,252415.6,0.029566099999999998
181.83333333333334,292.2,0.0034393333333333333,0.0029281000000000003,8530900.666666666,250894.76666666666,0.0294081
183.43333333333334,292.1333333333333,0.003421166666666667,0.0029142666666666667,8546736.466666667,251197.96666666667,0.02939066666666667
184.76666666666668,292.0,0.0034142666666666668,0.0029130333333333334,8542731.466666667,250309.3,0.029300366666666668
186.26666666666668,292.06666666666666,0.0034133999999999996,0.0029073666666666665,8555879.733333332,250918.36666666667,0.0293271
188.0,291.8666666666667,0.0034240666666666667,0.002920433333333333,8552139.866666667,251352.43333333332,0.029391833333333332
189.56666666666666,291.8,0.0034177,0.0029303333333333334,8556609.733333332,251499.23333333334,0.029391933333333335
191.16666666666666,291.73333333333335,0.0034258333333333337,0.0029286000000000004,8557434.366666667,251207.4,0.029355466666666667
192.66666666666666,291.6666666666667,0.003433666666666667,0.0029440666666666667,8561995.7,251213.3,0.029341
194.16666666666666,291.6666666666667,0.0034368333333333334,0.002922066666666667,8570285.4,251873.23333333334,0.029389
195.63333333333333,291.76666666666665,0.0034565999999999998,0.002943533333333333,8577557.733333332,251590.63333333333,0.0293314
197.0,291.7,0.0034441666666666666,0.0029277666666666664,8572497.6,250901.23333333334,0.0292686
198.6,291.73333333333335,0.0034165333333333334,0.002922333333333333,8596264.7,251354.43333333332,0.029241066666666666
199.9,291.76666666666665,0.0034247333333333333,0.002926666666666667,8577952.033333333,251695.83333333334,0.029343233333333333
201.56666666666666,291.8333333333333,0.0034318333333333336,0.0029428,8600145.466666667,251954.7,0.02929633333333333
203.03333333333333,291.8333333333333,0.0034249000000000003,0.0029249333333333334,8592154.833333334,251608.8,0.029283733333333332
204.63333333333333,291.8,0.0034313666666666667,0.0029503000000000003,8606322.166666666,251631.8,0.0292381
206.06666666666666,291.8,0.0034060666666666664,0.0029352,8608650.466666667,251796.53333333333,0.029249933333333332
207.63333333333333,291.73333333333335,0.0034248333333333335,0.0029409333333333333,8615430.2,252004.8,0.029249733333333337
209.26666666666668,291.73333333333335,0.003422,0.002960133333333333,8632824.2,253373.73333333334,0.029349233333333332
210.7,291.6,0.0034361333333333332,0.002959166666666667,8631665.7,252783.0,0.029285766666666668
212.03333333333333,291.6666666666667,0.0034157666666666665,0.0029395,8644618.466666667,252317.33333333334,0.029188433333333333
213.46666666666667,291.6333333333333,0.0034260333333333334,0.0029420333333333337,8657809.366666667,253493.3,0.02928086666666667
215.16666666666666,291.6,0.003444033333333333,0.0029712,8656456.133333333,253645.53333333333,0.029300533333333333
216.73333333333332,291.6333333333333,0.003438266666666667,0.0029647333333333334,8659977.266666668,254744.6,0.029413933333333333
218.2,291.43333333333334,0.003423233333333333,0.002937766666666667,8666331.6,252700.6,0.029158566666666667
219.83333333333334,291.43333333333334,0.0034200666666666666,0.0029476333333333334,8694113.266666668,254210.46666666667,0.029238133333333336
221.4,291.3666666666667,0.0034417666666666665,0.0029741,8687437.133333333,256384.43333333332,0.029508733333333332
222.73333333333332,291.3666666666667,0.0034120666666666664,0.002945766666666667,8692522.333333334,253836.5,0.029198900000000003
224.53333333333333,291.2,0.0034417333333333334,0.0029588666666666664,8734456.633333333,256521.43333333332,0.029364966666666666
226.1,291.26666666666665,0.0034319666666666666,0.002952433333333333,8759665.0,257461.7,0.029390033333333333
227.4,291.3666666666667,0.0034206,0.002957533333333333,8709041.666666666,253907.16666666666,0.029155733333333333
228.93333333333334,291.46666666666664,0.0034164333333333336,0.0029531333333333337,8718858.766666668,254350.3,0.029174099999999998
230.63333333333333,291.4,0.003410966666666667,0.0029524,8726433.466666667,253699.93333333332,0.029073699999999997
232.23333333333332,291.4,0.0034086,0.0029553333333333332,8735332.633333333,255105.53333333333,0.0292039
233.93333333333334,291.5,0.003404766666666667,0.0029532666666666667,8742874.233333332,254492.33333333334,0.029107833333333333
235.53333333333333,291.56666666666666,0.0034054000000000003,0.0029637,8748015.466666667,254432.13333333333,0.029084566666666666
237.26666666666668,291.56666666666666,0.003403233333333333,0.0029654,8759537.433333334,255368.6,0.029152433333333335
238.96666666666667,291.46666666666664,0.0034232666666666666,0.0029679333333333334,8776245.033333333,255281.1,0.0290884
240.56666666666666,291.6333333333333,0.003421666666666667,0.0029725333333333335,8787658.833333334,255792.6,0.029110566666666667
242.1,291.6333333333333,0.0034230000000000003,0.002985533333333333,8778515.933333334,254949.33333333334,0.029043
243.66666666666666,291.73333333333335,0.0034283,0.002979966666666667,8788604.166666666,255578.5,0.0290806
245.33333333333334,291.6666666666667,0.0034376,0.003009466666666667,8811764.133333333,259045.5,0.0293951
247.06666666666666,291.53333333333336,0.0034516666666666667,0.0030075,8792955.366666667,257125.8,0.029240966666666666
248.46666666666667,291.53333333333336,0.0034458333333333333,0.0030003333333333336,8829815.866666667,256830.26666666666,0.029085033333333333
250.0,291.43333333333334,0.0034387333333333334,0.002989333333333333,8815855.733333332,255885.9,0.029024766666666667
251.5,291.46666666666664,0.0034229666666666667,0.0029804999999999996,8836288.266666668,256753.76666666666,0.029055866666666666
253.06666666666666,291.3,0.0034369333333333337,0.002987766666666667,8837326.5,256206.4,0.028990000000000002
254.7,291.3666666666667,0.0034373333333333335,0.0029999666666666665,8828144.733333332,255910.46666666667,0.028987133333333335
256.23333333333335,291.2,0.0034436,0.0030005,8852772.2,256963.2,0.029024933333333332
257.8666666666667,291.26666666666665,0.0034293333333333333,0.002985133333333333,8854784.0,256178.46666666667,0.0289315
259.5,291.06666666666666,0.003459966666666667,0.0030112666666666666,8863362.733333332,256955.83333333334,0.028990033333333335
261.1666666666667,291.06666666666666,0.0034767333333333337,0.0030371666666666667,8866974.0,257064.36666666667,0.028989866666666666
262.7,290.9,0.0034614000000000003,0.003000933333333333,8882098.566666666,257020.33333333334,0.028936100000000003
264.4,290.9,0.0034408666666666666,0.0029927666666666668,8893300.033333333,257307.1,0.028930433333333335
265.8666666666667,290.9,0.0034557666666666666,0.0030195666666666668,8888710.9,257404.53333333333,0.028958833333333333
267.43333333333334,290.73333333333335,0.0034650333333333333,0.0030069333333333334,8904557.7,257653.46666666667,0.028933566666666667
268.96666666666664,290.7,0.0034752666666666666,0.003027733333333333,8927701.233333332,259118.83333333334,0.029022633333333332
270.56666666666666,290.53333333333336,0.0034632,0.003014,8912095.133333333,257680.96666666667,0.02891193333333333
